#F XAFS_McKale.dat
#UT McKale XAFS phases.
#U3W Sheet_McKale
#UIDL xmckale
#C  This file has been created using XAFS_McKale.pro on Tue Sep  3 14:53:00 1996
#UD McKale XAFS phases.
#UD 
#UD McKale XAFS phases K and L edges, and for  two values
#UD of R: R=2.5 A  (250 in the scan title) and R=4.0 A
#UD (400 in the scan title).
#UD Reference: 
#UD McKale A.G., Veal B.W., Paulikas A.P., Chan S.K. 
#UD and Knapp G.S. (1988) J. Amer.Chem.Soc. 110,3763
#UD Column description: 1: k(wavenumber A^-1), 
#UD    2: phase as photoabsorber, 3: modulus, 4: phase.
#UD 
#S 5  B K 250
#N 4
#L  K  FC  M  F
   1.50000  -6.59320   1.53754   0.28968
   1.60000  -6.63039   1.46301   0.18278
   1.70000  -6.66758   1.39712   0.08271
   1.80000  -6.70477   1.33631  -0.00955
   2.00000  -6.77914   1.22090  -0.16905
   2.20000  -6.85352   1.10516  -0.29517
   2.40000  -6.92789   0.98581  -0.38716
   2.60000  -7.00227   0.86250  -0.45884
   2.80000  -7.07665   0.74102  -0.51574
   3.00000  -7.15102   0.62911  -0.56947
   3.20000  -7.22540   0.53399  -0.63144
   3.40000  -7.29977   0.46006  -0.70930
   3.60000  -7.37415   0.40794  -0.80339
   3.80000  -7.44852   0.37470  -0.90628
   4.00000  -7.52247   0.35495  -1.00724
   4.20000  -7.59433   0.34246  -1.09856
   4.40000  -7.65523   0.33176  -1.17792
   4.60000  -7.71890   0.32310  -1.22226
   4.80000  -7.80237   0.30396  -1.28152
   5.00000  -7.90890   0.28076  -1.33930
   5.60000  -8.26741   0.20344  -1.53336
   6.00000  -8.47028   0.16376  -1.68565
   6.50000  -8.63024   0.13793  -1.85963
   7.00000  -8.76552   0.12817  -1.97860
   7.50000  -8.91478   0.11825  -2.07748
   8.00000  -9.07719   0.10121  -2.20599
   9.00000  -9.28771   0.06971  -2.53182
  10.00000  -9.49438   0.06134  -2.60917
  11.00000  -9.65968   0.04640  -2.88855
  12.00000  -9.80292   0.03874  -3.01270
  13.00000  -9.93368   0.03351  -3.10622
  14.00000 -10.03734   0.02733  -3.36313
  15.00000 -10.14868   0.02400  -3.35858
  16.00000 -10.25569   0.02096  -3.52334
  17.00000 -10.36269   0.01806  -3.67586
  18.00000 -10.46969   0.01615  -3.64358
  19.00000 -10.57668   0.01450  -3.87310
#S 5  B K 400
#N 4
#L  K  FC  M  F
   1.50000  -6.59320   1.47522  -0.25873
   1.60000  -6.63039   1.43573  -0.30570
   1.70000  -6.66758   1.39722  -0.35581
   1.80000  -6.70477   1.35834  -0.40575
   2.00000  -6.77914   1.27545  -0.49716
   2.20000  -6.85352   1.18142  -0.57040
   2.40000  -6.92789   1.07490  -0.62006
   2.60000  -7.00227   0.95680  -0.65573
   2.80000  -7.07665   0.83304  -0.68146
   3.00000  -7.15102   0.71242  -0.70772
   3.20000  -7.22540   0.60394  -0.74580
   3.40000  -7.29977   0.51435  -0.80469
   3.60000  -7.37415   0.44677  -0.88727
   3.80000  -7.44852   0.40048  -0.98756
   4.00000  -7.52247   0.37142  -1.09267
   4.20000  -7.59433   0.35343  -1.18988
   4.40000  -7.65523   0.34025  -1.27234
   4.60000  -7.71890   0.33196  -1.31216
   4.80000  -7.80237   0.31334  -1.36277
   5.00000  -7.90890   0.29058  -1.40881
   5.60000  -8.26741   0.21156  -1.56598
   6.00000  -8.47028   0.16903  -1.70977
   6.50000  -8.63024   0.14041  -1.89834
   7.00000  -8.76552   0.12903  -2.03098
   7.50000  -8.91478   0.11796  -2.12181
   8.00000  -9.07719   0.10017  -2.22739
   9.00000  -9.28771   0.06840  -2.54158
  10.00000  -9.49438   0.06076  -2.63498
  11.00000  -9.65968   0.04536  -2.89208
  12.00000  -9.80292   0.03869  -3.03826
  13.00000  -9.93368   0.03301  -3.11976
  14.00000 -10.03734   0.02698  -3.37112
  15.00000 -10.14868   0.02410  -3.38197
  16.00000 -10.25569   0.02054  -3.53146
  17.00000 -10.36269   0.01810  -3.68655
  18.00000 -10.46969   0.01611  -3.66252
  19.00000 -10.57668   0.01432  -3.87872
#S 5  B L 250
#N 4
#L  K  FC  M  F
   1.50000  -6.59320   1.58033   2.05608
   1.60000  -6.63039   1.35136   1.76275
   1.70000  -6.66758   1.20328   1.48590
   1.80000  -6.70477   1.10532   1.23286
   2.00000  -6.77914   0.98643   0.80813
   2.20000  -6.85352   0.90597   0.48450
   2.40000  -6.92789   0.83021   0.24686
   2.60000  -7.00227   0.74886   0.06546
   2.80000  -7.07665   0.66306  -0.07217
   3.00000  -7.15102   0.57920  -0.18165
   3.20000  -7.22540   0.50448  -0.27641
   3.40000  -7.29977   0.44392  -0.36673
   3.60000  -7.37415   0.39912  -0.45857
   3.80000  -7.44852   0.36862  -0.55322
   4.00000  -7.52247   0.34894  -0.64847
   4.20000  -7.59433   0.33572  -0.74123
   4.40000  -7.65523   0.32481  -0.82940
   4.60000  -7.71890   0.31788  -0.89035
   4.80000  -7.80237   0.30088  -0.96785
   5.00000  -7.90890   0.28006  -1.04373
   5.60000  -8.26741   0.20706  -1.28022
   6.00000  -8.47028   0.16671  -1.44715
   6.50000  -8.63024   0.13835  -1.62914
   7.00000  -8.76552   0.12719  -1.75353
   7.50000  -8.91478   0.11783  -1.86063
   8.00000  -9.07719   0.10203  -2.00004
   9.00000  -9.28771   0.07043  -2.34874
  10.00000  -9.49438   0.06141  -2.44392
  11.00000  -9.65968   0.04689  -2.73629
  12.00000  -9.80292   0.03871  -2.88011
  13.00000  -9.93368   0.03364  -2.97762
  14.00000 -10.03734   0.02749  -3.24650
  15.00000 -10.14868   0.02397  -3.25333
  16.00000 -10.25569   0.02105  -3.41774
  17.00000 -10.36269   0.01811  -3.58358
  18.00000 -10.46969   0.01614  -3.55388
  19.00000 -10.57668   0.01456  -3.78637
#S 5  B L 400
#N 4
#L  K  FC  M  F
   1.50000  -6.59320   1.23686   0.62388
   1.60000  -6.63039   1.22533   0.48059
   1.70000  -6.66758   1.21127   0.35192
   1.80000  -6.70477   1.19382   0.23661
   2.00000  -6.77914   1.14674   0.04231
   2.20000  -6.85352   1.08165  -0.10855
   2.40000  -6.92789   0.99894  -0.21864
   2.60000  -7.00227   0.90103  -0.30287
   2.80000  -7.07665   0.79414  -0.36751
   3.00000  -7.15102   0.68725  -0.42424
   3.20000  -7.22540   0.58943  -0.48484
   3.40000  -7.29977   0.50747  -0.55853
   3.60000  -7.37415   0.44459  -0.64913
   3.80000  -7.44852   0.40042  -0.75309
   4.00000  -7.52247   0.37158  -0.86104
   4.20000  -7.59433   0.35290  -0.96292
   4.40000  -7.65523   0.33896  -1.05269
   4.60000  -7.71890   0.33029  -1.10309
   4.80000  -7.80237   0.31204  -1.16427
   5.00000  -7.90890   0.28997  -1.22051
   5.60000  -8.26741   0.21293  -1.40136
   6.00000  -8.47028   0.17057  -1.55382
   6.50000  -8.63024   0.14127  -1.74948
   7.00000  -8.76552   0.12940  -1.89016
   7.50000  -8.91478   0.11845  -1.98965
   8.00000  -9.07719   0.10099  -2.10304
   9.00000  -9.28771   0.06901  -2.42826
  10.00000  -9.49438   0.06099  -2.53462
  11.00000  -9.65968   0.04564  -2.79861
  12.00000  -9.80292   0.03876  -2.95457
  13.00000  -9.93368   0.03311  -3.04155
  14.00000 -10.03734   0.02706  -3.29814
  15.00000 -10.14868   0.02411  -3.31565
  16.00000 -10.25569   0.02058  -3.46714
  17.00000 -10.36269   0.01812  -3.62777
  18.00000 -10.46969   0.01612  -3.60675
  19.00000 -10.57668   0.01434  -3.82502
#S 6  C K 250
#N 4
#L  K  FC  M  F
   1.50000  -6.02549   1.39138   0.81772
   1.60000  -6.07150   1.33781   0.67208
   1.70000  -6.11752   1.29382   0.54138
   1.80000  -6.16353   1.25577   0.42436
   2.00000  -6.25556   1.18831   0.22728
   2.20000  -6.34759   1.12307   0.07414
   2.40000  -6.43962   1.05368  -0.04055
   2.60000  -6.53165   0.97803  -0.12003
   2.80000  -6.62368   0.89529  -0.17707
   3.00000  -6.71571   0.80847  -0.21731
   3.20000  -6.80774   0.72220  -0.25051
   3.40000  -6.89977   0.64144  -0.28610
   3.60000  -6.99180   0.57013  -0.33154
   3.80000  -7.08383   0.51043  -0.39095
   4.00000  -7.17484   0.46266  -0.46435
   4.20000  -7.26079   0.42561  -0.54803
   4.40000  -7.33134   0.39691  -0.63607
   4.60000  -7.39964   0.37371  -0.72258
   4.80000  -7.48403   0.35320  -0.80334
   5.00000  -7.58906   0.33513  -0.85466
   5.60000  -7.93282   0.26568  -1.02599
   6.00000  -8.12787   0.21879  -1.13433
   6.50000  -8.30318   0.17372  -1.28669
   7.00000  -8.43911   0.14890  -1.44824
   7.50000  -8.58489   0.13632  -1.58928
   8.00000  -8.75694   0.12399  -1.70764
   9.00000  -8.99855   0.08854  -1.95791
  10.00000  -9.20367   0.07134  -2.16885
  11.00000  -9.38431   0.05936  -2.33655
  12.00000  -9.53301   0.04561  -2.57382
  13.00000  -9.67435   0.04037  -2.67982
  14.00000  -9.78974   0.03419  -2.82814
  15.00000  -9.90241   0.02833  -3.02364
  16.00000 -10.00999   0.02567  -3.06294
  17.00000 -10.11756   0.02219  -3.21790
  18.00000 -10.22512   0.01933  -3.35728
  19.00000 -10.33269   0.01764  -3.36691
#S 6  C K 400
#N 4
#L  K  FC  M  F
   1.50000  -6.02549   1.28916   0.27867
   1.60000  -6.07150   1.27324   0.17994
   1.70000  -6.11752   1.25856   0.09026
   1.80000  -6.16353   1.24396   0.00917
   2.00000  -6.25556   1.21173  -0.12837
   2.20000  -6.34759   1.17151  -0.23453
   2.40000  -6.43962   1.11995  -0.31132
   2.60000  -6.53165   1.05583  -0.35979
   2.80000  -6.62368   0.97915  -0.39030
   3.00000  -6.71571   0.89285  -0.40737
   3.20000  -6.80774   0.80217  -0.41963
   3.40000  -6.89977   0.71314  -0.43574
   3.60000  -6.99180   0.63108  -0.46298
   3.80000  -7.08383   0.55960  -0.50600
   4.00000  -7.17484   0.50039  -0.56590
   4.20000  -7.26079   0.45335  -0.63990
   4.40000  -7.33134   0.41689  -0.72206
   4.60000  -7.39964   0.38841  -0.80527
   4.80000  -7.48403   0.36489  -0.88352
   5.00000  -7.58906   0.34657  -0.93063
   5.60000  -7.93282   0.27726  -1.08118
   6.00000  -8.12787   0.22906  -1.17327
   6.50000  -8.30318   0.18034  -1.31399
   7.00000  -8.43911   0.15192  -1.47793
   7.50000  -8.58489   0.13737  -1.62257
   8.00000  -8.75694   0.12438  -1.73313
   9.00000  -8.99855   0.08840  -1.95030
  10.00000  -9.20367   0.07076  -2.18204
  11.00000  -9.38431   0.05882  -2.33669
  12.00000  -9.53301   0.04495  -2.57004
  13.00000  -9.67435   0.04004  -2.69370
  14.00000  -9.78974   0.03367  -2.82751
  15.00000  -9.90241   0.02799  -3.02793
  16.00000 -10.00999   0.02554  -3.07737
  17.00000 -10.11756   0.02181  -3.21939
  18.00000 -10.22512   0.01924  -3.36585
  19.00000 -10.33269   0.01756  -3.38013
#S 6  C L 250
#N 4
#L  K  FC  M  F
   1.50000  -6.02549   1.49572   2.54279
   1.60000  -6.07150   1.29938   2.24917
   1.70000  -6.11752   1.16561   1.97301
   1.80000  -6.16353   1.07428   1.71817
   2.00000  -6.25556   0.96657   1.28056
   2.20000  -6.34759   0.90639   0.93786
   2.40000  -6.43962   0.86026   0.67751
   2.60000  -6.53165   0.81368   0.48702
   2.80000  -6.62368   0.76093   0.34411
   3.00000  -6.71571   0.70243   0.23851
   3.20000  -6.80774   0.64155   0.15689
   3.40000  -6.89977   0.58258   0.08723
   3.60000  -6.99180   0.52910   0.01978
   3.80000  -7.08383   0.48314  -0.05212
   4.00000  -7.17484   0.44516  -0.13157
   4.20000  -7.26079   0.41442  -0.21832
   4.40000  -7.33134   0.38940  -0.30969
   4.60000  -7.39964   0.36819  -0.40195
   4.80000  -7.48403   0.34888  -0.49165
   5.00000  -7.58906   0.33204  -0.55738
   5.60000  -7.93282   0.26603  -0.77077
   6.00000  -8.12787   0.22063  -0.90045
   6.50000  -8.30318   0.17569  -1.06629
   7.00000  -8.43911   0.14996  -1.23197
   7.50000  -8.58489   0.13684  -1.37847
   8.00000  -8.75694   0.12483  -1.50689
   9.00000  -8.99855   0.09021  -1.77899
  10.00000  -9.20367   0.07180  -2.00450
  11.00000  -9.38431   0.06001  -2.18662
  12.00000  -9.53301   0.04609  -2.43631
  13.00000  -9.67435   0.04048  -2.55381
  14.00000  -9.78974   0.03444  -2.70902
  15.00000  -9.90241   0.02847  -2.91455
  16.00000 -10.00999   0.02570  -2.96152
  17.00000 -10.11756   0.02229  -3.11958
  18.00000 -10.22512   0.01938  -3.26801
  19.00000 -10.33269   0.01765  -3.28164
#S 6  C L 400
#N 4
#L  K  FC  M  F
   1.50000  -6.02549   1.12079   1.18372
   1.60000  -6.07150   1.10981   0.99243
   1.70000  -6.11752   1.10328   0.82545
   1.80000  -6.16353   1.09822   0.67914
   2.00000  -6.25556   1.08590   0.43801
   2.20000  -6.34759   1.06460   0.25351
   2.40000  -6.43962   1.03036   0.11553
   2.60000  -6.53165   0.98191   0.01832
   2.80000  -6.62368   0.91954  -0.05193
   3.00000  -6.71571   0.84617  -0.10143
   3.20000  -6.80774   0.76696  -0.14000
   3.40000  -6.89977   0.68779  -0.17713
   3.60000  -6.99180   0.61386  -0.22067
   3.80000  -7.08383   0.54872  -0.27585
   4.00000  -7.17484   0.49404  -0.34454
   4.20000  -7.26079   0.44987  -0.42499
   4.40000  -7.33134   0.41496  -0.51259
   4.60000  -7.39964   0.38712  -0.60138
   4.80000  -7.48403   0.36379  -0.68600
   5.00000  -7.58906   0.34543  -0.74127
   5.60000  -7.93282   0.27712  -0.91575
   6.00000  -8.12787   0.22972  -1.02070
   6.50000  -8.30318   0.18141  -1.17174
   7.00000  -8.43911   0.15281  -1.34189
   7.50000  -8.58489   0.13802  -1.49313
   8.00000  -8.75694   0.12506  -1.61161
   9.00000  -8.99855   0.08931  -1.84259
  10.00000  -9.20367   0.07116  -2.08252
  11.00000  -9.38431   0.05918  -2.24639
  12.00000  -9.53301   0.04523  -2.48581
  13.00000  -9.67435   0.04015  -2.61638
  14.00000  -9.78974   0.03381  -2.75514
  15.00000  -9.90241   0.02807  -2.96015
  16.00000 -10.00999   0.02558  -3.01460
  17.00000 -10.11756   0.02187  -3.15928
  18.00000 -10.22512   0.01926  -3.30983
  19.00000 -10.33269   0.01758  -3.32724
#S 7  N K 250
#N 4
#L  K  FC  M  F
   1.50000  -5.51604   1.16647   1.19647
   1.60000  -5.56930   1.13937   1.03492
   1.70000  -5.62256   1.11863   0.88936
   1.80000  -5.67582   1.10196   0.75850
   2.00000  -5.78234   1.07475   0.53628
   2.20000  -5.88886   1.04918   0.36044
   2.40000  -5.99538   1.02030   0.22483
   2.60000  -6.10190   0.98507   0.12619
   2.80000  -6.20842   0.94234   0.05398
   3.00000  -6.31494   0.89144   0.00455
   3.20000  -6.42146   0.83369  -0.02940
   3.40000  -6.52798   0.77166  -0.05552
   3.60000  -6.63450   0.70856  -0.08100
   3.80000  -6.74102   0.64745  -0.11166
   4.00000  -6.84604   0.59071  -0.15137
   4.20000  -6.94369   0.53978  -0.20172
   4.40000  -7.02268   0.49523  -0.26216
   4.60000  -7.09530   0.45683  -0.33030
   4.80000  -7.18054   0.42380  -0.40264
   5.00000  -7.28394   0.39496  -0.47536
   5.60000  -7.61281   0.32035  -0.63592
   6.00000  -7.80146   0.27251  -0.73376
   6.50000  -7.99031   0.22146  -0.85652
   7.00000  -8.12672   0.18531  -0.99680
   7.50000  -8.26820   0.16237  -1.14549
   8.00000  -8.44815   0.14504  -1.28089
   9.00000  -8.71796   0.10807  -1.50812
  10.00000  -8.92130   0.08165  -1.73715
  11.00000  -9.11673   0.07041  -1.92284
  12.00000  -9.27042   0.05512  -2.11790
  13.00000  -9.42142   0.04613  -2.29582
  14.00000  -9.54776   0.04081  -2.42418
  15.00000  -9.66174   0.03350  -2.60180
  16.00000  -9.76994   0.02947  -2.72792
  17.00000  -9.87813   0.02651  -2.81979
  18.00000  -9.98631   0.02263  -2.98228
  19.00000 -10.09450   0.02045  -3.06492
#S 7  N K 400
#N 4
#L  K  FC  M  F
   1.50000  -5.51604   1.03804   0.67643
   1.60000  -5.56930   1.04579   0.55080
   1.70000  -5.62256   1.05302   0.43836
   1.80000  -5.67582   1.05920   0.33769
   2.00000  -5.78234   1.06699   0.16748
   2.20000  -5.88886   1.06693   0.03402
   2.40000  -5.99538   1.05726  -0.06687
   2.60000  -6.10190   1.03612  -0.13679
   2.80000  -6.20842   1.00356  -0.18463
   3.00000  -6.31494   0.95873  -0.21296
   3.20000  -6.42146   0.90312  -0.22807
   3.40000  -6.52798   0.83968  -0.23683
   3.60000  -6.63450   0.77227  -0.24583
   3.80000  -6.74102   0.70479  -0.26059
   4.00000  -6.84604   0.64046  -0.28506
   4.20000  -6.94369   0.58156  -0.32120
   4.40000  -7.02268   0.52938  -0.36902
   4.60000  -7.09530   0.48425  -0.42663
   4.80000  -7.18054   0.44578  -0.49066
   5.00000  -7.28394   0.41293  -0.55699
   5.60000  -7.61281   0.33560  -0.70196
   6.00000  -7.80146   0.28639  -0.78842
   6.50000  -7.99031   0.23228  -0.89763
   7.00000  -8.12672   0.19219  -1.02873
   7.50000  -8.26820   0.16623  -1.17269
   8.00000  -8.44815   0.14754  -1.30227
   9.00000  -8.71796   0.11005  -1.50619
  10.00000  -8.92130   0.08223  -1.73074
  11.00000  -9.11673   0.07057  -1.92175
  12.00000  -9.27042   0.05510  -2.10372
  13.00000  -9.42142   0.04586  -2.29284
  14.00000  -9.54776   0.04054  -2.42180
  15.00000  -9.66174   0.03316  -2.59168
  16.00000  -9.76994   0.02923  -2.73115
  17.00000  -9.87813   0.02625  -2.82042
  18.00000  -9.98631   0.02235  -2.97872
  19.00000 -10.09450   0.02034  -3.07222
#S 7  N L 250
#N 4
#L  K  FC  M  F
   1.50000  -5.51604   1.32677   2.87175
   1.60000  -5.56930   1.17688   2.59055
   1.70000  -5.62256   1.06971   2.32444
   1.80000  -5.67582   0.99397   2.07585
   2.00000  -5.78234   0.90426   1.63858
   2.20000  -5.88886   0.86030   1.28426
   2.40000  -5.99538   0.83513   1.00654
   2.60000  -6.10190   0.81424   0.79677
   2.80000  -6.20842   0.79042   0.63675
   3.00000  -6.31494   0.76034   0.51818
   3.20000  -6.42146   0.72371   0.42987
   3.40000  -6.52798   0.68205   0.36125
   3.60000  -6.63450   0.63777   0.30293
   3.80000  -6.74102   0.59335   0.24725
   4.00000  -6.84604   0.55075   0.18882
   4.20000  -6.94369   0.51122   0.12454
   4.40000  -7.02268   0.47536   0.05351
   4.60000  -7.09530   0.44322  -0.02333
   4.80000  -7.18054   0.41444  -0.10377
   5.00000  -7.28394   0.38839  -0.18500
   5.60000  -7.61281   0.31792  -0.38165
   6.00000  -7.80146   0.27182  -0.50012
   6.50000  -7.99031   0.22215  -0.64036
   7.00000  -8.12672   0.18653  -0.78910
   7.50000  -8.26820   0.16368  -0.94361
   8.00000  -8.44815   0.14649  -1.08774
   9.00000  -8.71796   0.10996  -1.33721
  10.00000  -8.92130   0.08291  -1.57893
  11.00000  -9.11673   0.07124  -1.77674
  12.00000  -9.27042   0.05592  -1.98396
  13.00000  -9.42142   0.04653  -2.17050
  14.00000  -9.54776   0.04113  -2.30713
  15.00000  -9.66174   0.03381  -2.49231
  16.00000  -9.76994   0.02959  -2.62591
  17.00000  -9.87813   0.02663  -2.72290
  18.00000  -9.98631   0.02275  -2.89072
  19.00000 -10.09450   0.02049  -2.97965
#S 7  N L 400
#N 4
#L  K  FC  M  F
   1.50000  -5.51604   0.94339   1.59773
   1.60000  -5.56930   0.94017   1.38408
   1.70000  -5.62256   0.94281   1.19606
   1.80000  -5.67582   0.94838   1.03050
   2.00000  -5.78234   0.96138   0.75592
   2.20000  -5.88886   0.97032   0.54304
   2.40000  -5.99538   0.97081   0.38012
   2.60000  -6.10190   0.96008   0.26078
   2.80000  -6.20842   0.93769   0.17259
   3.00000  -6.31494   0.90275   0.11102
   3.20000  -6.42146   0.85661   0.06833
   3.40000  -6.52798   0.80205   0.03663
   3.60000  -6.63450   0.74274   0.00857
   3.80000  -6.74102   0.68237  -0.02198
   4.00000  -6.84604   0.62406  -0.05941
   4.20000  -6.94369   0.57002  -0.10616
   4.40000  -7.02268   0.52152  -0.16270
   4.60000  -7.09530   0.47902  -0.22765
   4.80000  -7.18054   0.44228  -0.29820
   5.00000  -7.28394   0.41050  -0.37072
   5.60000  -7.61281   0.33437  -0.53662
   6.00000  -7.80146   0.28592  -0.63558
   6.50000  -7.99031   0.23257  -0.75697
   7.00000  -8.12672   0.19284  -0.89632
   7.50000  -8.26820   0.16693  -1.04683
   8.00000  -8.44815   0.14824  -1.18346
   9.00000  -8.71796   0.11087  -1.40174
  10.00000  -8.92130   0.08285  -1.63473
  11.00000  -9.11673   0.07096  -1.83331
  12.00000  -9.27042   0.05547  -2.02225
  13.00000  -9.42142   0.04608  -2.21636
  14.00000  -9.54776   0.04070  -2.35066
  15.00000  -9.66174   0.03330  -2.52471
  16.00000  -9.76994   0.02931  -2.66822
  17.00000  -9.87813   0.02632  -2.76117
  18.00000  -9.98631   0.02241  -2.92231
  19.00000 -10.09450   0.02036  -3.01920
#S 8  O K 250
#N 4
#L  K  FC  M  F
   1.50000  -5.35840   0.96713   1.48637
   1.60000  -5.40931   0.95333   1.32030
   1.70000  -5.46022   0.94486   1.16882
   1.80000  -5.51113   0.94002   1.03115
   2.00000  -5.61295   0.93636   0.79382
   2.20000  -5.71477   0.93531   0.60171
   2.40000  -5.81659   0.93265   0.44903
   2.60000  -5.91841   0.92565   0.33079
   2.80000  -6.02023   0.91219   0.24367
   3.00000  -6.12205   0.89168   0.17939
   3.20000  -6.22388   0.86308   0.13448
   3.40000  -6.32570   0.82683   0.10305
   3.60000  -6.42752   0.78425   0.07913
   3.80000  -6.52934   0.73734   0.05725
   4.00000  -6.63000   0.68835   0.03296
   4.20000  -6.72494   0.63938   0.00312
   4.40000  -6.80536   0.59214  -0.03399
   4.60000  -6.88088   0.54783  -0.07869
   4.80000  -6.96693   0.50714  -0.13012
